Wavelength,S1c,Wavelength,S1c / R1c,Wavelength,S1,Wavelength,R1
nm,CPS,nm,CPS / MicroAmps,nm,CPS,nm,MicroAmps
420,1596.43542480469,420,3971.29680633169,420,1580,420,0.403857807716309
421,2111.96933345795,421,5259.32988576539,421,2080,421,0.403446548319244
422,2377.00307426453,422,5923.51200544696,422,2340,422,0.403173642026256
423,2981.95123758316,423,7412.67642464234,423,2930,423,0.404130983183862
424,4172.29261083603,424,10401.1628597095,424,4090,424,0.40303348623937
425,6016.59354066849,425,14991.4881401941,425,5890,425,0.403222970351552
426,6875.79580192566,426,17067.9778001614,426,6740,426,0.404680088807127
427,9698.11775312424,427,24181.4083499909,427,9510,427,0.402956141586332
428,12609.750528717,428,31392.7562927408,428,12380,428,0.403553236814621
429,14845.0992433548,429,36863.3424410511,429,14600,429,0.404543940121147
430,17833.2510495186,430,44557.6987753459,430,17570,430,0.402158628131822
431,22463.7537296295,431,55856.8747771922,431,22140,431,0.404024181916501
432,26446.2166744232,432,65866.8208308833,432,26080,432,0.403392840960072
433,30675.4015237331,433,76492.3724229665,433,30270,433,0.402926153298597
434,36083.5044133186,434,89609.9091814945,434,35630,434,0.404512056167362
435,41279.4725897312,435,103083.715808627,435,40790,435,0.402368308919487
436,48692.3597398281,436,121080.413728079,436,48170,436,0.404007450416514
437,62047.3182471752,437,154628.913020291,437,61450,437,0.40315749226758
438,72814.0291308403,438,181589.658679192,438,72200,438,0.402883335469193
439,86706.6649853706,439,215418.914074149,439,86080,439,0.404347849191972
440,108966.567572832,440,271168.60998023,440,108310,440,0.403710683193041
441,133053.83358407,441,331767.589418924,441,132410,441,0.402945094938728
442,163805.954157591,442,406856.561129762,442,163210,442,0.40445466094975
443,195261.640187979,443,485940.957901099,443,194790,443,0.403692488756708
444,239354.28075242,444,596645.442042823,444,239070,444,0.403061947217745
445,287124.44056797,445,711796.689888832,445,287140,445,0.405192321806447
446,338632.818493175,446,844325.203362673,446,338650,446,0.402968080157806
447,390379.164655781,447,971984.713141136,447,390400,447,0.403508857582002
448,450523.786930466,448,1119347.90921274,448,450550,448,0.404333560767072
449,507785.963504028,449,1265824.24110289,449,507820,449,0.403046308390065
450,553865.867948055,450,1376721.48389715,450,553910,450,0.404160424539397
451,605041.845906067,451,1503142.59151846,451,603960,451,0.404362642587403
452,638257.043088055,452,1589912.1206865,452,635930,452,0.403326676469037
453,665638.343412781,453,1652532.98003914,453,661980,453,0.404633030941873
454,675979.927966309,454,1682805.02937485,454,671020,454,0.40357367262393
455,682297.747226715,455,1694950.1848828,455,676040,455,0.404390985071749
456,665038.477445221,456,1651269.77654406,456,657630,456,0.404579954438238
457,643560.588708115,457,1604300.68880828,457,635130,457,0.403043095938252
458,635262.897473145,458,1581290.52890991,458,625700,458,0.403610910743542
459,595724.670107269,459,1481079.90121406,459,585600,459,0.404078917574964
460,567819.356197357,460,1413394.51658494,460,557070,460,0.403615335792201
461,538325.141639185,461,1339607.96356724,461,526630,461,0.40372233923851
462,505526.502968216,462,1255868.52162,462,493140,462,0.404375599206171
463,469941.663625574,463,1172707.58721016,463,457130,463,0.402643679506814
464,444116.972421455,464,1104355.38062859,464,430790,464,0.404008870675936
465,416184.47756052,465,1033019.89561321,465,402560,465,0.404712494420742
466,384053.014339447,466,957375.732066374,466,370600,466,0.403047624460571
467,357311.59046936,467,886113.694780237,467,343980,467,0.405052386079902
468,333406.736530781,468,829753.735536609,468,320210,468,0.403685120430803
469,309958.747088671,469,772416.798913181,469,296990,469,0.403175168143522
470,283738.66121769,470,703734.267936105,470,271230,470,0.405009631669836
471,260090.219588804,471,648506.238100994,471,247470,471,0.402959698552978
472,245333.655771351,472,609477.306911313,472,232350,472,0.404375453294006
473,229612.090135956,473,570910.177852098,473,216460,473,0.404043142391699
474,211219.477687073,474,525798.353940351,474,198210,474,0.403586799235139
475,197016.897083759,475,488927.905266076,475,184040,475,0.404785240456402
476,181645.276763391,476,451158.25485694,476,169150,476,0.404460766372491
477,167703.004949474,477,417528.665668104,477,155680,477,0.403533206316881
478,154858.600380754,478,383870.980575168,478,143310,478,0.405224375514254
479,143968.981117058,479,358097.453946092,479,132820,479,0.403901191551399
480,134694.292571545,480,335135.229750972,480,123880,480,0.403777715050833
481,123736.096593142,481,306972.734561149,481,113490,481,0.404908476392631
482,113513.524910212,482,282587.267243919,482,103830,482,0.403569239707458
483,106149.920614958,483,263740.254166386,483,96830,483,0.404325192752102
484,100261.692460775,484,249216.444851342,484,91210,484,0.404160265991048
485,93942.4921834469,485,233713.760860091,485,85230,485,0.403821085534484
486,84240.7869069099,486,209181.250330211,486,76280,486,0.404553995901174
487,80600.2815770149,487,200556.613801485,487,72840,487,0.403751401746937
488,72751.0000387192,488,180422.81950162,488,65620,488,0.405043311630709
489,68471.4995358467,489,170092.76907426,489,61640,489,0.404397220909447
490,62626.2039134502,490,155997.216956401,490,56270,490,0.40334157309971
491,59455.4677313805,491,147729.215777163,491,53320,491,0.404309273305764
492,56741.6118598461,492,140714.919382551,492,50790,492,0.405055842195492
493,50174.1672033787,493,124858.465790575,493,44830,493,0.403718095864801
494,47767.7875519753,494,118592.581982806,494,42600,494,0.404623573354038
495,45902.8435115814,495,113848.45195613,495,40860,495,0.405011994159446
496,41407.79901371,496,103129.235115969,496,36790,496,0.40339595589869
497,38780.147650671,497,96125.8948277462,497,34390,497,0.405241378096155
498,36831.8764188767,498,91528.8926572497,498,32600,498,0.404255958621978
499,35045.6337651253,499,87194.759418987,499,30960,499,0.403790564858082
500,31559.6933326721,500,78276.6342734869,500,27830,500,0.405001423395308
501,30768.4057017803,501,76625.6574049786,501,27030,501,0.403423037625637
502,28127.497265625,502,69898.5245710072,502,24620,502,0.404253680532542
503,26936.1671247005,503,66808.952642354,503,23490,503,0.405001873529569
504,24224.3046403885,504,60374.7795988388,504,21050,504,0.403124985087653
505,23667.4277012348,505,58706.927270649,505,20490,505,0.404966643132735
506,21710.0207267761,506,53991.2077010371,506,18740,506,0.403963126497003
507,21347.3394574642,507,53104.3993705593,507,18370,507,0.403852680286543
508,20537.9162776947,508,50866.9269129976,508,17620,508,0.405556095376926
509,19242.4201377869,509,47849.9594416036,509,16460,509,0.403999600485097
510,18091.3039741516,510,44966.4132009453,510,15430,510,0.40418103320217
511,17110.6625906944,511,42398.6506929213,511,14530,511,0.405371709369027
512,15894.9349750519,512,39499.4911331629,512,13440,512,0.404257402008001
513,15740.2391530037,513,39074.4521749126,513,13250,513,0.404660023738694
514,14661.6190784454,514,36278.1733810352,514,12290,514,0.405928236962375
515,13993.6284036636,515,34880.8197236519,515,11680,515,0.403078648676992
516,13685.4787405968,516,33955.054015556,516,11370,516,0.404871812146518
517,12851.7551854134,517,31882.8453761249,517,10630,517,0.404916305104795
518,11485.0930301666,518,28593.9063949576,518,9460,518,0.403538974615764
519,11600.1222554207,519,28773.6343841502,519,9510,519,0.404972126283008
520,10102.9022612572,520,25125.6215031058,520,8250,520,0.403956123428346
521,9879.82621908188,521,24533.4566037319,521,8030,521,0.404545876318354
522,9728.70528078079,522,24158.8544899186,522,7870,522,0.404535295063798
523,9150.97275209427,523,22755.9348523448,523,7370,523,0.403994664028605
524,8868.4794049263,524,22010.8086755671,524,7110,524,0.404744616554679
525,8330.6600060463,525,20662.5332140955,525,6650,525,0.404997147119837
526,7473.10420379639,526,18550.8735834745,526,5940,526,0.404676312733815
527,7638.30144710541,527,18959.9036569447,527,6040,527,0.404697738695445
528,7407.88448314667,528,18319.9278236718,528,5830,528,0.406137835018796
529,6634.35014858246,529,16497.6257130603,529,5200,529,0.403998552158645
530,6783.79458618164,530,16825.5513989611,530,5290,530,0.405003883159695
531,6146.36913962364,531,15199.5106328225,531,4770,531,0.406154497615816
532,5671.27397384644,532,14119.5766987182,532,4380,532,0.403537127348684
533,6334.76249656677,533,15676.2651386676,533,4860,533,0.405884540798958
534,5907.46707324982,534,14652.661188042,534,4510,534,0.404987278498387
535,5062.63350653648,535,12582.0120539026,535,3850,535,0.404220957345391
536,5054.6497177124,536,12491.9205719469,536,3820,536,0.406399097664081
537,4668.97652630806,537,11607.3477460769,537,3510,537,0.404098172735515
538,4522.0579416275,538,11201.0031147445,538,3380,538,0.405518802897881
539,4359.30151472092,539,10798.1096947884,539,3240,539,0.405509826677139
540,4235.35125136375,540,10527.3707909085,540,3130,540,0.40417023427146
541,4276.0756319046,541,10587.0721705918,541,3140,541,0.405689125786429
542,3788.81915602684,542,9404.57843108328,542,2770,542,0.404701199817826
543,4022.38287439346,543,10011.5278041259,543,2920,543,0.403647623150206
544,3597.12052030563,544,8896.89508920826,544,2600,544,0.40608950876675
545,3293.72083210945,545,8179.17678210993,545,2370,545,0.404533940607902
546,3342.97421078682,546,8305.49419468737,546,2390,546,0.404346865476952
547,3263.53436574936,547,8077.98263188328,547,2320,547,0.405792779928667
548,2750.00147023201,548,6823.25994235252,548,1950,548,0.404858805936687
549,2970.25097222328,549,7356.95662215093,549,2090,549,0.405532893673787
550,3003.1132440567,550,7429.00419616436,550,2100,550,0.406021933076199
