Wavelength,S1c,Wavelength,S1c / R1c,Wavelength,S1,Wavelength,R1
nm,CPS,nm,CPS / MicroAmps,nm,CPS,nm,MicroAmps
420,4779.95216059685,420,11802.9633432435,420,4650,420,0.40667180368547
421,5351.49793286324,421,13216.9016558861,421,5210,421,0.406593908523954
422,7628.97894349098,422,18815.8888081951,422,7420,422,0.407129128172864
423,9856.14444050789,423,24334.4014429953,423,9590,423,0.406720187873228
424,12208.5447898388,424,30040.7600858406,424,11890,424,0.408039021174017
425,14201.6719582081,425,35004.5973190228,425,13850,425,0.407374284690071
426,19047.063370657,426,47092.6524011108,426,18600,426,0.406171596280401
427,22620.4037472248,427,55727.3332354692,427,22130,427,0.407570098576867
428,28589.6654132366,428,70405.9302233292,428,28020,428,0.40772104208879
429,35316.772581625,429,87229.8123629757,429,34680,429,0.406567315555074
430,46907.1687853336,430,115308.274303579,430,46150,430,0.408422724391181
431,64078.0201767206,431,157967.790777537,431,63080,431,0.407307881303628
432,89385.4901341438,432,220878.733662193,432,88050,432,0.40638523624684
433,123041.586889958,433,302388.023249699,433,121290,433,0.408520646712577
434,156598.109877157,434,386753.131183426,434,154490,434,0.406600167249835
435,183936.086092353,435,453702.02956434,435,181610,435,0.407088277296661
436,204507.708553624,436,503102.090484171,436,202180,436,0.40812962809843
437,205624.32361629,437,507824.127302567,437,203550,437,0.406607776378496
438,195092.070483899,438,481254.355300158,438,193380,438,0.407060176091908
439,180384.249140668,439,443591.508423461,439,179040,439,0.408275458962538
440,160923.609652638,440,397452.737415504,440,159940,440,0.406583650564979
441,141088.368826032,441,347338.598064897,441,140410,441,0.407845567154227
442,124816.631372094,442,308080.579629572,442,124380,442,0.406829496350272
443,114631.715470672,443,282769.722776959,443,114380,443,0.407066412406444
444,106775.445358872,444,262457.036032156,444,106680,444,0.408453763627972
445,101679.071627975,445,251448.831666369,445,101720,445,0.406088301176693
446,101817.063542795,446,250806.202532152,446,101860,446,0.407615268882302
447,105795.277771497,447,260679.589633121,447,105840,447,0.407504573524437
448,111123.387213325,448,274062.181523101,448,111170,448,0.407142322971783
449,123271.418765712,449,303535.214830038,449,123320,449,0.407769178321236
450,137538.967208147,450,338072.102770611,450,137590,450,0.408456696414802
451,155267.918446732,451,383063.469600959,451,155030,451,0.407011702258767
452,181503.261346483,452,446588.127339165,452,180880,452,0.408060888925258
453,209172.436874485,453,513696.968023331,453,208060,453,0.408800433288658
454,235421.70448308,454,581903.695802421,454,233730,454,0.406279644238465
455,278925.171374321,455,685109.818819333,455,276400,455,0.408737318886389
456,319549.903252029,456,787116.380659396,456,316020,456,0.407630965884114
457,365755.370654869,457,904090.261531103,457,360990,457,0.406264881360611
458,415857.898997498,458,1020031.43547408,458,409620,458,0.409282627217089
459,478578.046063042,459,1180755.0150103,459,470460,459,0.406995513876283
460,536180.959859848,460,1320008.73259973,460,526040,460,0.407842342304649
461,590567.376930642,461,1452296.67034794,461,577740,461,0.408274307162426
462,652913.63781867,462,1612387.97820657,462,636910,462,0.406630243275603
463,712273.872316146,463,1749948.75950819,463,692840,463,0.408641827242314
464,760639.474579525,464,1869428.35293685,464,737790,464,0.408505041978752
465,803921.67965591,465,1986929.69949579,465,777570,465,0.406311797366815
466,837740.226679802,466,2056085.53837259,466,808350,466,0.409044856430344
467,848429.066096663,467,2090220.43034774,467,816720,467,0.407562324224137
468,859648.624984503,468,2117134.67222771,468,825560,468,0.407696432523994
469,862101.92711556,469,2114322.89400989,469,825960,469,0.409333147635235
470,839666.010272503,470,2073389.31580678,470,802570,470,0.406665722581423
471,824610.645479512,471,2032193.44323403,471,784510,471,0.407436787310289
472,794899.589459085,472,1951487.63730148,472,752740,472,0.408934945469574
473,759710.499823308,473,1873883.61602761,473,716100,473,0.407096630291261
474,713908.958855438,474,1751108.25652356,474,669840,474,0.409281215063899
475,668971.497234464,475,1644521.49366802,475,624810,475,0.408413087751
476,629483.282061982,476,1556239.69125927,476,586080,476,0.406201035728588
477,582772.144580102,477,1429573.29883795,477,540890,477,0.40924734937496
478,534014.965682769,478,1316255.5889352,478,494090,478,0.407373213952273
479,496174.472722363,479,1220627.82660522,479,457650,479,0.408127456582095
480,457228.149116635,480,1122172.76026641,480,420420,480,0.409049413324472
481,418491.4335078,481,1033645.65575043,481,383740,481,0.406566255069275
482,378734.606713653,482,931458.013324208,482,346330,482,0.408236089857748
483,349225.627387166,483,858901.800663536,483,318470,483,0.408227876099593
484,316182.966465354,484,781395.676567978,484,287550,484,0.406344286426931
485,289272.429532409,485,709808.267901776,485,262360,485,0.409133186218994
486,263386.716595101,486,648324.800564946,486,238410,486,0.407902352735555
487,243274.537994122,487,600239.909779628,487,219770,487,0.406976482352351
488,222824.899456763,488,546561.607476079,488,200900,488,0.409276481024773
489,202503.159278941,489,497854.420742572,489,182220,489,0.408378263857829
490,184304.331365466,490,453860.485869808,490,165520,490,0.407733045271697
491,171013.147002196,491,419334.322705068,491,153290,491,0.409407067167096
492,155265.114122224,492,382144.629929862,492,138910,492,0.407942778511447
493,141325.883502412,493,348002.404661045,493,126200,493,0.407756714275233
494,131260.393564725,494,321892.968459403,494,116990,494,0.409364697564603
495,118725.923330903,495,292915.416215391,495,105620,495,0.407004814823117
496,112516.3915452,496,276648.04942401,496,99900,496,0.408341074852443
497,101222.892235923,497,248517.309664934,497,89700,497,0.408912944442352
498,93470.1068267345,498,230812.049257735,498,82670,498,0.406655440780592
499,87068.8343856096,499,213817.616501155,499,76860,499,0.408820102343846
500,80062.3055973053,500,197151.389935514,500,70540,500,0.40774661963298
501,73607.7041318178,501,181292.08114734,501,64610,501,0.407671188288966
502,68085.8026055813,502,166948.487623003,502,59540,502,0.409411572562813
503,62898.9257830858,503,154906.094298429,503,54800,503,0.407698445015144
504,59089.2671364784,504,145169.742737638,504,51290,504,0.408651584045454
505,56094.0956164598,505,137369.613606923,505,48510,505,0.409911222306847
506,51939.8543585777,506,128139.884791404,506,44780,506,0.40701655860662
507,49459.0574061155,507,121527.170792432,507,42510,507,0.408597413200583
508,46120.3355464459,508,113175.818550095,508,39520,508,0.40910863983512
509,41739.969461894,509,102906.906767632,509,35660,509,0.40727826876356
510,38295.5725421906,510,93707.8986378341,510,32620,510,0.41022440870198
511,37619.5977392673,511,92538.3603447923,511,31900,511,0.408164575492421
512,32949.1228219032,512,81209.9835128684,512,27820,512,0.4073923096108
513,32859.5072852612,513,80523.3403379132,513,27620,513,0.409651361085917
514,29906.3027078629,514,73840.1014095171,514,25030,514,0.406705868692333
515,27935.5443613529,515,68550.693333867,515,23280,515,0.409114486335293
516,25772.3446987629,516,63265.3742087459,516,21380,516,0.408972308043678
517,24522.2560920239,517,60519.3472190297,517,20250,517,0.406881631338974
518,23454.4237337589,518,57528.9909842135,518,19280,518,0.409288601271197
519,22020.1348835468,519,54085.4775372002,519,18020,519,0.40874795759982
520,21359.4018194675,520,52682.7639270857,520,17400,520,0.407110127166509
521,19248.7122642994,521,47146.7884314679,521,15610,521,0.409841620773707
522,18086.2424137592,522,44533.2898662264,522,14600,522,0.407778411080359
523,16649.374257803,523,41011.6464337218,523,13380,523,0.407622841771341
524,14859.0330703259,524,36347.4405838718,524,11890,524,0.410355179380277
525,14538.9311549664,525,35869.9748649767,525,11580,525,0.407003091056856
526,13700.2685445786,526,33639.4757734951,526,10860,526,0.40887481463729
527,12355.5513234615,527,30219.0924011556,527,9750,527,0.41041317279008
528,12520.1697823524,528,30917.0938956179,528,9830,528,0.406653009388015
529,11476.2934397221,529,28087.3214885507,529,8970,529,0.410151001531626
530,10214.4859771729,530,25070.6401854508,530,7950,530,0.409029415013239
531,10116.928805995,531,24950.3581627627,531,7830,531,0.407156297161008
532,9402.85714898109,532,23004.7817435022,532,7240,532,0.410287233902524
533,8903.65600898266,533,21898.7539811332,533,6820,533,0.408215597543238
534,7683.94004220963,534,18883.0860823405,534,5860,534,0.408541982790407
535,7913.19146883488,535,19383.6261543919,535,6000,535,0.409811834664919
536,7387.87388560772,536,18196.016986515,536,5570,536,0.407670020276391
537,7232.4682543993,537,17772.3838355852,537,5420,537,0.408568912883144
538,7196.52446405888,538,17627.3530019537,538,5360,538,0.40982907733432
539,6804.92967989445,539,16768.6520178499,539,5040,539,0.407474201621223
540,6435.37330448627,540,15799.6620467214,540,4740,540,0.408916418677755
541,5992.85922701359,541,14680.2101075311,541,4390,541,0.40979840311636
542,5488.64521172047,542,13510.3192666014,542,4000,542,0.407900834009264
543,5145.46126387119,543,12617.6910821473,543,3730,543,0.409384772408197
544,5459.01036708355,544,13393.8794120159,544,3930,544,0.409170715209261
545,5181.30891001225,545,12736.939140354,545,3710,545,0.40841881480347
546,4743.71745426655,546,11640.8123446998,546,3380,546,0.409105669378156
547,4199.86474397183,547,10303.7281154545,547,2980,547,0.409200870389994
548,3980.72091100216,548,9779.05715238843,548,2810,548,0.408680679932481
549,4063.40785496235,549,9951.49676068693,549,2850,549,0.409889081089506
550,4015.34937155247,550,9860.80132139899,550,2800,550,0.408812776933283
