Wavelength,S1c,Wavelength,S1c / R1c,Wavelength,S1,Wavelength,R1
nm,CPS,nm,CPS / MicroAmps,nm,CPS,nm,MicroAmps
420,1077.8017809391,420,2636.44754680875,420,1070,420,0.410319186044019
421,1635.84265170097,421,4032.5415598909,421,1610,421,0.407289028355206
422,1891.45671458244,422,4659.76619158919,422,1860,422,0.40753151434601
423,2683.34281497002,423,6580.03838059838,423,2630,423,0.409349010099534
424,2770.87252726555,424,6829.63415411246,424,2720,424,0.407339770502622
425,3516.71230387688,425,8635.92750983469,425,3450,425,0.408789115320722
426,4145.39839491844,426,10164.9735202281,426,4070,426,0.409360118735966
427,5242.47502036095,427,12939.1299508726,427,5150,427,0.406811539855672
428,6365.18454461098,428,15619.2890876548,428,6260,428,0.409079750656993
429,7727.4881125927,429,18954.2906303606,429,7610,429,0.409243340366706
430,11413.6469829082,430,28125.4010466224,430,11250,430,0.407435647192687
431,15053.4396033049,431,36829.097041373,431,14840,431,0.410251153781907
432,20830.1031395912,432,51314.4258622934,432,20540,432,0.40754920738809
433,32381.3947071314,433,79683.8269781282,433,31940,433,0.407975390357126
434,45007.5453940868,434,110222.618675594,434,44420,434,0.40986172398911
435,57874.943077445,435,142607.341103711,435,57160,435,0.407456319513218
436,68483.5588602781,436,168196.261057822,436,67720,436,0.408736887110359
437,77356.5538066149,437,189733.740753545,437,76590,437,0.409262980811665
438,75882.761635232,438,187117.249245865,438,75230,438,0.407169127894771
439,74372.2599368334,439,182276.229602718,439,73830,439,0.409559857946099
440,68879.8421016932,440,169342.731900596,440,68470,440,0.408336034445455
441,62057.8133658171,441,152685.345993641,441,61770,441,0.408041818777518
442,55865.2533677816,442,136952.620284943,442,55680,442,0.409460829362538
443,51352.6101974249,443,126527.078929323,443,51250,443,0.407483618201064
444,44618.1950393915,444,109621.621019159,444,44590,444,0.408597746271325
445,40751.0365167856,445,99865.1456064564,445,40780,445,0.409599451164345
446,35489.8106645107,446,87487.3137090804,446,35520,446,0.40728536457704
447,34119.0245841265,447,83777.6336858439,447,34150,447,0.40882582033641
448,31518.244357872,448,77230.9206582006,448,31550,448,0.409641136028705
449,29597.5807478666,449,73053.7686236592,449,29630,449,0.406795639721239
450,28396.9932296276,450,69569.3322802606,450,28430,450,0.40971686897221
451,27688.5220714569,451,68036.0753237712,451,27670,451,0.408547900577733
452,26103.9729127407,452,64336.3695257232,452,26040,452,0.407367606347506
453,27409.4539750099,453,67098.749138621,453,27290,453,0.410016841733357
454,29354.2945815563,454,72322.6129502504,454,29170,454,0.407500259340413
455,30983.1625432968,455,76099.9881762645,455,30730,455,0.408710872068093
456,33674.3577014923,456,82590.5708682216,456,33330,456,0.409277718417151
457,38260.8294748306,457,94271.1220936121,457,37790,457,0.407480616511268
458,44906.1020217895,458,110155.783212149,458,44260,458,0.409213743800682
459,50468.4670808792,459,123915.516587497,459,49640,459,0.408849204429756
460,58886.3369922638,460,145093.775078284,460,57800,460,0.407471670331266
461,69369.7309389353,461,169957.779222191,461,67890,461,0.409693744516687
462,79214.8309960842,462,194708.663607216,462,77300,462,0.408422269965387
463,92785.2205432177,463,228504.121705993,463,90280,463,0.407668727809323
464,104709.474651432,464,256341.609301851,464,101590,464,0.40999956163224
465,120101.413012147,465,295346.218365395,465,116190,465,0.408237888010603
466,138763.657668114,466,341206.021860234,466,133920,466,0.408276059777334
467,158302.905834079,467,387237.343116461,467,152410,467,0.410311840844715
468,177266.881990671,468,436407.262457675,468,170260,468,0.407804535556748
469,201558.883388162,469,494049.743931424,469,193130,469,0.409514934880721
470,229866.337692738,470,563427.356203881,470,219730,470,0.409520524842513
471,261405.25060699,471,643471.646193557,471,248710,471,0.407848883318117
472,290915.112628889,472,712453.377936628,472,275500,472,0.409857406467226
473,325716.318735528,473,801417.779551797,473,307030,473,0.408025092999577
474,364322.315683746,474,895081.734007947,474,341840,474,0.408604333299577
475,396191.390243649,475,970612.929223188,475,370040,475,0.409720884656184
476,438626.091507697,476,1080306.65638036,476,408380,476,0.407635108406768
477,487451.375453162,477,1194703.60215595,477,452410,477,0.409550981861157
478,530229.595681977,478,1302263.17575335,478,490570,478,0.408732574356846
479,570273.347756839,479,1404027.17953058,479,525970,479,0.407779258419957
480,618061.635776162,480,1513341.97098385,480,568270,480,0.4099342316062
481,660614.810361266,481,1622967.5931195,481,605710,481,0.408618207591421
482,698866.240211129,482,1719915.01754727,482,639010,482,0.407940900488371
483,731089.399625659,483,1789824.29661421,483,666630,483,0.409993417347273
484,754857.28984654,484,1854564.4136264,484,686410,484,0.408604200023597
485,779240.985305905,485,1915305.95526784,485,706640,485,0.40843345513418
486,794723.800159478,486,1943528.09383103,486,719240,486,0.410414914437734
487,803397.5563802,487,1979888.41960244,487,725640,487,0.407403338615429
488,796678.699292493,488,1951753.77348077,488,718140,488,0.409720175837776
489,790882.725506043,489,1941343.07761583,489,711500,489,0.408953371171919
490,764819.145957351,490,1883666.22323316,490,686690,490,0.407641759808034
491,758267.019640374,491,1855571.49329396,491,679490,491,0.410160389501238
492,723953.686791873,492,1782263.87219924,492,647490,492,0.407807366062011
493,691216.203731322,493,1696997.89556882,493,617020,493,0.408883676178699
494,662500.241224837,494,1623233.64325471,494,590250,494,0.409672072030255
495,619824.46747458,495,1526549.12241433,495,551170,495,0.407644577677112
496,582631.148387623,496,1426849.48925999,496,517070,496,0.409862567037174
497,541468.912447238,497,1326171.70713958,497,479590,497,0.409824768395505
498,495930.423004961,498,1221350.70782998,498,438390,498,0.407664764577434
499,455728.134483504,499,1115588.82762608,499,402060,499,0.410031079136683
500,414170.715276718,500,1015461.74348162,500,364680,500,0.409410558091798
501,377162.095194983,501,928978.378766318,501,330830,501,0.407612631972918
502,345730.38702426,502,845478.298059345,502,302110,502,0.410423698016272
503,313520.395795846,503,771131.523298531,503,272930,503,0.408166365300626
504,281321.833957386,504,692185.625045697,504,243980,504,0.408025380770791
505,258467.618562341,505,632572.652324855,505,223320,505,0.410116240580957
506,230450.662354183,506,567342.91493762,506,198490,506,0.40780155413253
507,206294.323687577,507,505943.925026081,507,177130,507,0.409292214027788
508,185230.363825178,508,453736.869294987,508,158550,508,0.409765353057349
509,166632.841101813,509,410979.172883884,509,142190,509,0.407089570955822
510,151807.746145248,510,371833.896449442,510,129140,510,0.409798693271759
511,134025.649052763,511,328936.933610162,511,113500,511,0.409012502791976
512,120406.861485767,512,296171.089498253,512,101510,512,0.408140441572673
513,109067.247022104,513,266721.967866293,513,91540,513,0.410424130030721
514,97094.0162015915,514,238510.13070449,514,81130,514,0.408660772935561
515,87005.5890443325,515,213913.43556298,515,72380,515,0.408321166186593
516,79721.5990524769,516,194593.29807303,516,66010,516,0.411161281386934
517,71600.0345333576,517,175974.595685911,517,59010,517,0.408460173511227
518,63508.3197537899,518,155835.909044288,518,52100,518,0.409091807007241
519,57041.0828885555,519,139281.343761223,519,46580,519,0.411022094294698
520,51828.1594555378,520,127863.442317926,520,42130,520,0.406980495175303
521,47960.3334629536,521,117301.334137996,521,38800,521,0.410373085806976
522,43294.3545634747,522,105860.589721258,522,34860,522,0.410479780262819
523,39193.2940270901,523,96594.8373803393,523,31410,523,0.407374612038767
524,35916.9650623798,524,87622.8772353164,524,28650,524,0.411373821766927
525,32166.234449625,525,79003.0565911099,525,25540,525,0.40872456420815
526,28552.6829034805,526,70218.7724208568,526,22560,526,0.408217146548687
527,26735.3289643764,527,65333.5260834984,527,21020,527,0.410708708820058
528,23630.7161952019,528,58158.2723069123,528,18490,528,0.40792137043121
529,20982.6120777607,529,51406.5099562389,529,16340,529,0.409705025052908
530,20194.9142303467,530,49488.8962554444,530,15650,530,0.409608066180953
531,18541.8503647089,531,45647.7988114321,531,14290,531,0.407802370477714
532,16175.4255614758,532,39617.9839927399,532,12400,532,0.409815333457434
533,14675.4454265356,533,35952.8957007926,533,11190,533,0.409719487284946
534,13885.0608750343,534,34182.2151612698,534,10530,534,0.407815292764208
535,13178.0110744238,535,32196.3165070285,535,9940,535,0.410794199520377
536,11253.8241993666,536,27573.2038711634,536,8440,536,0.40967920885173
537,10920.7711190939,537,26847.1208268046,537,8140,537,0.408363087562174
538,9633.77271916866,538,23530.9634961255,538,7140,538,0.410896732141662
539,9748.41299302578,539,23956.6382721036,539,7180,539,0.408500567339031
540,8354.04506385326,540,20506.0916189481,540,6120,540,0.408957093124215
541,8034.2157463789,541,19636.6432674537,541,5850,541,0.410642326176032
542,7084.23009474278,542,17447.9216024728,542,5130,542,0.407636501009635
543,6793.0158626318,543,16627.4841020385,543,4890,543,0.410062230430202
544,6736.86069276333,544,16483.47765763,544,4820,544,0.410218586043664
545,6042.26431238651,545,14859.5950410067,545,4300,545,0.408216295394392
546,5382.10298130512,546,13169.7982234482,546,3810,546,0.410186119871731
547,4885.26431639195,547,12011.1802439664,547,3440,547,0.408315119891657
548,4829.09492175579,548,11842.5165012512,548,3380,548,0.409325519194669
549,4263.74736335278,549,10433.6304603559,549,2970,549,0.410170840102417
550,4041.64121901989,550,9924.67662862602,550,2800,550,0.40880133665662
