Wavelength,S1c,Wavelength,S1c / R1c,Wavelength,S1,Wavelength,R1
nm,CPS,nm,CPS / MicroAmps,nm,CPS,nm,MicroAmps
420,315.961177825928,420,853.433584716984,420,400,420,0.371739665383908
421,253.104379844666,421,680.303185260256,421,340,421,0.373494415091854
422,200.844336414337,422,541.600403779898,422,290,422,0.372328195901908
423,272.777244186401,423,736.196163154618,423,360,423,0.372027473552777
424,334.113397407532,424,898.67382373702,424,420,424,0.373242697534019
425,251.120223045349,425,677.524304221688,425,340,425,0.372144292214775
426,342.968309116364,426,924.206334741826,426,430,426,0.372578516565341
427,331.944871330261,427,891.728258458484,427,420,427,0.373689308921389
428,320.968033885956,428,866.575184672073,428,410,428,0.371896874297432
429,452.818361091614,429,1218.52527648327,429,540,429,0.3730760212575
430,512.835702896118,430,1379.93799236898,430,600,430,0.373100068631307
431,614.052645397186,431,1658.86336632859,431,700,431,0.371683045741905
432,593.201357269287,432,1593.74895631635,432,680,432,0.373647058528181
433,846.399949407577,433,2281.40073933287,433,930,433,0.372487228240655
434,1119.43429641724,434,3019.50195217993,434,1200,434,0.372231781577967
435,1199.50168228149,435,3222.89493581652,435,1280,435,0.373624364656595
436,1359.81655426025,436,3668.26706556422,436,1440,436,0.37219569645056
437,1812.73636021614,437,4884.31644882997,437,1890,437,0.372616190752516
438,2133.27869591713,438,5732.69066152084,438,2210,438,0.373570233150788
439,2694.84427647591,439,7276.86073870733,439,2770,439,0.371842759004088
440,3345.50893735886,440,9001.49746491261,440,3420,440,0.373123751463121
441,4014.75462985039,441,10791.7120917429,441,4090,441,0.373470914888665
442,4812.80257058144,442,13005.5823267182,442,4890,442,0.371579071165109
443,5508.54677987099,443,14813.2805058564,443,5590,443,0.37332016354211
444,7063.68803572655,444,19024.9186594523,444,7150,444,0.372762520626691
445,8324.82459974289,445,22487.4327997844,445,8420,445,0.371716048594038
446,10124.8018476486,446,27222.2468586496,446,10220,446,0.37338344436054
447,12824.7610067368,447,34625.8269601342,447,12920,447,0.371891614306941
448,16184.6389785767,448,43618.1745521767,448,16280,448,0.372537786805772
449,17824.3497398376,449,47933.0331062338,449,17920,449,0.37331438475281
450,21173.994951725,450,57168.6147955747,450,21270,450,0.371888338435789
451,23978.6187812805,451,64573.8118937814,451,24030,451,0.372811107947071
452,29112.1478971481,452,78295.1302866314,452,29100,452,0.373282006080492
453,34888.0506368637,453,94136.9798346215,453,34790,453,0.372111132006385
454,38237.0489943504,454,102974.856090918,454,38050,454,0.372799120261372
455,44525.2380504608,455,119777.695310198,455,44210,455,0.373192021428547
456,50085.2596572876,456,135156.537379695,456,49620,456,0.372075343233261
457,56883.0521953583,457,153023.800611659,457,56230,457,0.373186756192848
458,63372.3619415283,458,170730.83748278,458,62510,458,0.372663140614158
459,69744.4975963592,459,188045.911193515,459,68650,459,0.372381992191205
460,77833.4927330017,460,209403.87411994,460,76450,460,0.373152071059284
461,83556.0898442745,461,225024.754758375,461,81830,461,0.372794706656804
462,90847.8785754204,462,244776.258614694,462,88710,462,0.372628238519695
463,101613.732170248,463,273188.507820417,463,98930,463,0.373406043103116
464,111707.152846527,464,300770.466471287,464,108440,464,0.372875356744896
465,119333.182514906,465,321350.263160041,465,115510,465,0.372823309255809
466,131008.099246979,466,352297.008032343,466,126500,466,0.373322962337703
467,141968.442047358,467,382735.152896598,467,136750,467,0.372420967190099
468,155853.481681824,468,419304.097083756,468,149760,468,0.373156680643916
469,167109.628203154,469,449854.230679243,469,160190,469,0.372944405623791
470,182769.775342941,470,492900.375941391,470,174780,470,0.372299115512088
471,199781.698745203,471,537490.497245157,471,190150,471,0.373154628098447
472,213775.881534958,472,575999.4005319,472,202520,472,0.37262098010475
473,233588.626592731,473,629402.555680965,473,220260,473,0.372609888634455
474,254225.258122253,474,684355.265890366,474,238610,474,0.372950514861229
475,272011.296081305,475,733221.25850659,475,254130,475,0.372469007101442
476,294837.097129154,476,794030.852507075,476,274580,476,0.372792186572519
477,318738.721607304,477,856447.151765953,477,295900,477,0.373607490105467
478,345411.229364061,478,930885.066572592,478,319650,478,0.372541782939424
479,372287.806927872,479,1002680.50372766,479,343440,479,0.372768725708394
480,396105.811742544,480,1064697.25005983,480,364270,480,0.373484458732371
481,423786.805305481,481,1142177.49883985,481,388640,481,0.372519940937389
482,452730.690268278,482,1218828.76387505,482,414030,482,0.372917711088601
483,480873.858753443,483,1291874.85822834,483,438550,483,0.373670570890717
484,507130.64820528,484,1367874.53411442,484,461220,484,0.372240245198783
485,537902.539823055,485,1445669.57532454,485,487860,485,0.373525255487558
486,565587.666372585,486,1521891.00361178,486,511940,486,0.373098173918931
487,590256.779353714,487,1593396.44057035,487,533200,487,0.371947454558639
488,620955.124369764,488,1668285.97604122,488,559810,488,0.373653240721701
489,638820.548806143,489,1722173.63877504,489,574770,489,0.3724279361649
490,665807.458402157,490,1793860.36765555,490,597860,490,0.372640185674238
491,681528.219287252,491,1833284.49664874,491,610790,491,0.373211532173805
492,703096.845148754,492,1896848.39490971,492,628900,492,0.372165420868449
493,731801.644611883,493,1971073.6515974,493,653310,493,0.37274756534505
494,741967.67367425,494,1994932.13813332,494,661110,494,0.373378739646899
495,748995.941828012,495,2023208.7522193,495,666090,495,0.371718966598917
496,760604.902070427,496,2046370.11509556,496,675070,496,0.373146409571921
497,772671.803438473,497,2079883.50583054,497,684420,497,0.372966134377005
498,784113.043245506,498,2116729.61744707,498,693180,498,0.371944293843656
499,790911.803493357,499,2127384.25413611,499,697810,499,0.373234719094993
500,792143.077911377,500,2131154.72215438,500,697520,500,0.373157708943209
501,781676.671409225,501,2107778.25171813,501,685680,501,0.372345968098952
502,786191.932441902,502,2114525.00992855,502,687020,502,0.373262440737383
503,779138.341947365,503,2096825.42991215,503,678280,503,0.37304539520009
504,769621.588359261,504,2075546.53620604,504,667470,504,0.372298735472887
505,757209.519035339,505,2034413.55903936,505,654240,505,0.373642604154038
506,745537.625550652,506,2007808.47934752,506,642130,506,0.372794271304495
507,727941.2468472,507,1965130.67702423,507,625010,507,0.371937398063356
508,712521.733110619,508,1914543.19957609,508,609860,508,0.373606408161996
509,687778.203309393,509,1855774.95006919,509,586850,509,0.372116600374707
510,672590.611690521,510,1812284.41846995,510,572110,510,0.372610919556352
511,650932.789115715,511,1751759.99877462,511,551180,511,0.373053006712937
512,634473.216601944,512,1714572.01317185,512,534820,512,0.371570310713173
513,624441.485174561,513,1678613.66480407,513,524000,513,0.373448105145654
514,594934.164849472,514,1603507.56495432,514,497010,514,0.372506837214363
515,576297.929318428,515,1556681.21166473,515,479300,515,0.371726028080123
516,560824.297173595,516,1508264.10675805,516,464230,516,0.373290187413722
517,531132.229651165,517,1431955.39454232,517,437590,517,0.37240427932071
518,501684.866576004,518,1350738.63560318,518,411400,518,0.372886787007979
519,479989.677318001,519,1289785.69731351,519,391780,519,0.373591061873901
520,450030.986493587,520,1214913.03828917,520,365630,520,0.371931102382597
521,420448.091642857,521,1130794.79639915,521,339950,521,0.373273011978358
522,389762.315551281,522,1047972.32263071,522,313630,522,0.373373114637577
523,362521.419055939,523,978814.533951512,523,290320,523,0.371878590930973
524,339519.931749821,524,911733.414205867,524,270610,524,0.373824621950281
525,306748.874131203,525,825239.055732728,525,243340,525,0.373169698774675
526,281070.344234848,526,759300.353819816,526,221850,526,0.371688323852207
527,260453.849911022,527,699632.572108104,527,204550,527,0.37371185688081
528,237272.517102432,528,640222.761691798,528,185420,528,0.372111036638957
529,215467.119817829,529,580861.663900872,529,167550,529,0.372433158246839
530,196199.856994629,530,527094.042396452,530,151820,530,0.373670452635106
531,178166.672431993,531,480938.028876579,531,137090,531,0.371964047537437
532,164937.807471848,532,443812.07941147,532,126200,532,0.373102060380041
533,148167.148393536,533,398506.357220787,533,112740,533,0.373263192232715
534,133128.328732681,534,359453.941462284,534,100740,534,0.371873639215693
535,123405.349694014,535,331717.299343819,535,92870,535,0.373468613434209
536,113293.226750231,536,304975.873650299,536,84730,536,0.372951649972041
537,103501.483676386,537,279423.81947335,537,76930,537,0.371919547188183
538,93591.4174225807,538,251605.612068041,538,69140,538,0.373427251150174
539,85950.2583381176,539,231520.223842909,539,63110,539,0.372721006231608
540,77891.4857161045,540,209821.459729587,540,56850,540,0.372706056195176
541,71480.6260509014,541,192026.865983694,541,51850,541,0.373683467428006
542,65149.3430372715,542,175680.443520634,542,46970,542,0.372333136888352
543,60886.7927864552,543,163987.637465643,543,43630,543,0.372765225723786
544,54637.9526918411,544,146762.590362367,544,38920,544,0.373726947345779
545,49298.193056345,545,133167.229854947,545,34910,545,0.371714753981203
546,46431.147350502,546,124857.801853101,546,32680,546,0.373326704317159
547,41445.1657766342,547,111522.011879885,547,29000,547,0.373095624509162
548,39033.8613723278,548,105481.270702879,548,27150,548,0.371577363849729
549,37402.5151751518,549,100519.706008602,549,25860,549,0.373537662789941
550,32943.6848766804,550,88813.3416954138,550,22650,550,0.372421378223714
