Wavelength,S1c,Wavelength,S1c / R1c,Wavelength,S1,Wavelength,R1
nm,CPS,nm,CPS / MicroAmps,nm,CPS,nm,MicroAmps
420,1234.95089306831,420,1579.51037875295,420,1214,420,0.769235454677455
420.25,1232.26933051586,420.25,1576.16342630179,420.25,1212,420.25,0.769195925640659
420.5,1330.30776298523,420.5,1701.5193413916,420.5,1307,420.5,0.7692147126429
420.75,1396.07717110634,420.75,1785.60266865414,420.75,1371,420.75,0.769230939601849
421,1431.6994469738,421,1830.97144064523,421,1406,421,0.769310118219872
421.25,1479.72780380249,421.25,1891.87537860924,421.25,1453,421.25,0.76951642696266
421.5,1561.90617279053,421.5,1996.53182069069,421.5,1533,421.5,0.769671420017245
421.75,1707.18631148815,421.75,2182.2513768119,421.75,1674,421.75,0.769666978946765
422,1791.2416023922,422,2289.77762218742,422,1756,422,0.769640479389726
422.25,1830.71835299492,422.25,2339.27925027381,422.25,1795,422.25,0.76995022631738
422.5,2085.28229217529,422.5,2664.38061568662,422.5,2042,422.5,0.770000745115339
422.75,2135.94535366535,422.75,2728.81927761326,422.75,2092,422.75,0.770081887539481
423,2264.05112674713,423,2893.31761288023,423,2217,423,0.769864632523076
423.25,2425.07748541355,423.25,3099.20841710846,423.25,2374,423.25,0.769838127243991
423.5,2442.46419549942,423.5,3120.79225493765,423.5,2392,423.5,0.769991649351336
423.75,2730.14388477802,423.75,3488.16537857901,423.75,2672,423.75,0.770035229978027
424,2847.38862012863,424,3638.84078183196,424,2787,424,0.769853484833449
424.25,3033.57375982285,424.25,3875.9468790256,424.25,2969,424.25,0.770014888105208
424.5,3219.57390129089,424.5,4113.38526060094,424.5,3151,424.5,0.770053518399344
424.75,3343.60767580032,424.75,4271.46582888729,424.75,3273,424.75,0.770121815975073
425,3616.74872059822,425,4620.48549798413,425,3540,425,0.770108539684408
425.25,3867.73697356224,425.25,4940.17359451722,425.25,3786,425.25,0.77025428591298
425.5,4137.97094285965,425.5,5286.65823118511,425.5,4051,425.5,0.770065993222127
425.75,4281.52183620453,425.75,5471.35738692598,425.75,4193,425.75,0.769887111770737
426,4664.16363373756,426,5957.99674373658,426,4568,426,0.770182785898951
426.25,5053.55243411064,426.25,6456.4399873855,426.25,4950,426.25,0.770061579998936
426.5,5517.37129501343,426.5,7049.313323699,426.5,5405,426.5,0.770029900846039
426.75,5863.79825385094,426.75,7493.45393140636,426.75,5746,426.75,0.769876529037764
427,6261.0540051651,427,8000.33900940476,427,6137,427,0.769949519835459
427.25,6687.54846054077,427.25,8543.62978318352,427.25,6557,427.25,0.770097776134788
427.5,7060.33908996582,427.5,9019.66039330336,427.5,6925,427.5,0.770116605098698
427.75,7457.24756492615,427.75,9525.01306290755,427.75,7317,427.75,0.770251264672797
428,8091.86990397453,428,10336.2409970278,428,7942,428,0.770204906183604
428.25,8613.38715717316,428.25,10999.0476099804,428.25,8457,428.25,0.770435064413288
428.5,9222.11268263817,428.5,11773.3433324756,428.5,9058,428.5,0.770629019259194
428.75,9537.27070240975,428.75,12180.2184941022,428.75,9372,428.75,0.770348533729351
429,10376.2715527439,429,13248.882048533,429,10200,429,0.770510066319346
429.25,11429.3755752373,429.25,14591.5782612142,429.25,11239,429.25,0.770610997866682
429.5,12193.9968352985,429.5,15569.8164935172,429.5,11996,429.5,0.770510914708003
429.75,13127.761165247,429.75,16759.4333138299,429.75,12920,429.75,0.770630272387224
430,14081.8171815872,430,17977.9391394405,430,13865,430,0.770608498858546
430.25,15112.3320819044,430.25,19296.5387803963,430.25,14881,430.25,0.770492666722477
430.5,16307.1641719866,430.5,20807.3427209301,430.5,16059,430.5,0.771030540553556
430.75,17296.0665979934,430.75,22079.1602764106,430.75,17035,430.75,0.770688366029413
431,18320.1183453417,431,23389.6633248492,431,18046,431,0.770583340167573
431.25,19758.4213412523,431.25,25222.3319917656,431.25,19465,431.25,0.77069219941863
431.5,20922.7368186617,431.5,26715.7278414954,431.5,20615,431.5,0.770491642476279
431.75,22719.4959576833,431.75,29005.5029987177,431.75,22388,431.75,0.77060762224113
432,23860.3056892586,432,30450.2717489085,432,23516,432,0.770896809858225
432.25,25676.9602818048,432.25,32779.5142841781,432.25,25310,432.25,0.770647214220429
432.5,27470.4817422271,432.5,35071.9397945155,432.5,27082,432.5,0.770587132358059
432.75,29527.1400894129,432.75,37686.9029064472,432.75,29114,432.75,0.770803212066256
433,31439.8001351166,433,40130.1860633947,433,31005,433,0.770764431091581
433.25,33722.9813362968,433.25,43058.8917227868,433.25,33262,433.25,0.770511835957377
433.5,35496.9342429852,433.5,45307.1956797216,433.5,35018,433.5,0.770790584274115
433.75,38430.3551390231,433.75,49042.2455009867,433.75,37918,433.75,0.770930191891952
434,40774.3802666569,434,52034.0553656742,434,40238,434,0.770922625058587
434.25,43502.6038554656,434.25,55528.7570298527,434.25,42938,434.25,0.770744804093018
434.5,45799.8895726752,434.5,58455.0847005935,434.5,45214,434.5,0.770822663588749
434.75,48706.1804497993,434.75,62157.9668364623,434.75,48092,434.75,0.770901051801511
435,51526.0941395044,435,65771.8518352777,435,50886,435,0.770727184006651
435.25,54279.1575662994,435.25,69287.5796101952,435.25,53621,435.25,0.770710784241918
435.5,57536.6251471567,435.5,73455.6481649184,435.5,56856,435.5,0.770609181689345
435.75,61124.9312534523,435.75,78038.6099157755,435.75,60420,435.75,0.770591247271929
436,64254.5698472595,436,81981.8737533498,436,63533,436,0.771072852793429
436.25,68995.3893613815,436.25,88036.9687702105,436.25,68241,436.25,0.77101866959734
436.5,73325.6155617857,436.5,93545.8950525076,436.5,72546,436.5,0.771150687112158
436.75,77783.3810353088,436.75,99240.5598574611,436.75,76980,436.75,0.771092710581173
437,83258.7587270689,437,106191.168835696,437,82424,437,0.771342773900846
437.25,87542.6388257122,437.25,111684.647023526,437.25,86692,437.25,0.771142303933591
437.5,93622.1139642715,437.5,119438.711938171,437.5,92741,437.5,0.771154768456693
437.75,99363.4553959274,437.75,126727.836905776,437.75,98459,437.75,0.771365596852724
438,103846.67487946,438,132488.249636177,438,102934,438,0.771123323907673
438.25,109113.786075897,438.25,139179.247170923,438.25,108189,438.25,0.771279540335649
438.5,114626.506462297,438.5,146191.541428901,438.5,113691,438.5,0.771379755864321
438.75,120976.360813522,438.75,154291.423197699,438.75,120027,438.75,0.771372665105166
439,127481.251204815,439,162544.910641545,439,126521,439,0.771571174699529
439.25,134317.326911764,439.25,171335.864411425,439.25,133348,439.25,0.771242386329331
439.5,141475.192976732,439.5,180416.124354292,439.5,140499,439.5,0.771452985080591
439.75,149212.268862591,439.75,190255.544772832,439.75,148230,439.75,0.77156121452514
440,159070.898205018,440,202879.695945219,440,158074,440,0.771361224828263
440.25,167428.960171437,440.25,213542.796658277,440.25,166431,440.25,0.771349939046597
440.5,177134.543504334,440.5,225861.780172018,440.5,176133,440.5,0.771549575121043
440.75,185639.393112159,440.75,236698.23397636,440.75,184647,440.75,0.771574966127076
441,194698.712247348,441,248289.937882698,441,193718,441,0.771451270374199
441.25,204457.675841784,441.25,260775.641223196,441.25,203491,441.25,0.771333853612913
441.5,215355.60991559,441.5,274627.554553665,441.5,214404,441.5,0.771465384372369
441.75,224694.034404016,441.75,286511.13376269,441.75,223771,441.75,0.77153136375661
442,235027.400825357,442,299749.39149473,442,234135,442,0.771375196538228
442.25,245566.927524781,442.25,313141.416046173,442.25,244711,442.25,0.771495428927517
442.5,256442.838922119,442.5,326975.707011644,442.5,255629,442.5,0.771574907380739
442.75,267581.591604149,442.75,341305.732499912,442.75,266816,442.75,0.771292586218604
443,279247.627479291,443,356106.697249033,443,278536,443,0.771460640796401
443.25,293068.219700432,443.25,373782.764433186,443.25,292413,443.25,0.771356543813329
443.5,303700.590280151,443.5,387299.33961539,443.5,303117,443.5,0.771442441638999
443.75,319485.856029904,443.75,407601.798191414,443.75,318972,443.75,0.771123866357615
444,336391.569971538,444,429065.205753859,444,335956,444,0.771308496939155
444.25,352905.06026814,444.25,449979.626529021,444.25,352559,444.25,0.771557430726987
444.5,364888.646726227,444.5,465254.314641326,444.5,364646,444.5,0.771565960008457
444.75,380135.897381043,444.75,484880.885435179,444.75,380003,444.75,0.771277241217647
445,392854.113420582,445,500977.105860851,445,392841,445,0.771467723163223
445.25,408828.666280028,445.25,521418.118935324,445.25,408816,445.25,0.771366566167282
445.5,423727.964687841,445.5,540403.237110329,445.5,423716,445.5,0.77139083336352
445.75,437880.052263374,445.75,558403.621327718,445.75,437869,445.75,0.771456442722133
446,452537.039295063,446,577029.470106634,446,452527,446,0.77154196403719
446.25,466126.801559347,446.25,594364.543554757,446.25,466118,446.25,0.771533348925033
446.5,481644.562420597,446.5,614145.678049918,446.5,481637,446.5,0.771540442354477
446.75,496308.114257537,446.75,633060.711862853,446.75,496302,446.75,0.771281054770438
447,514786.746860261,447,656338.564644042,447,514782,447,0.771617230301764
447.25,528603.942501435,447.25,674063.821338485,447.25,528601,447.25,0.771495454104518
447.5,545908.173218608,447.5,696070.85337945,447.5,545907,447.5,0.771559365159937
447.75,562987.222084268,447.75,717798.801863502,447.75,562988,447.75,0.771610927277581
448,577719.008668785,448,736648.165432681,448,577722,448,0.771542674333809
448.25,591734.624228503,448.25,754574.182540967,448.25,591740,448.25,0.771487910922275
448.5,606534.123756359,448.5,773235.051773903,448.5,606542,448.5,0.771694198302759
448.75,617310.377385211,448.75,787005.038343145,448.75,617321,448.75,0.771663527374332
449,629830.558197656,449,803119.2977919,449,629844,449,0.771520287020351
449.25,640596.588947039,449.25,816781.095557785,449.25,640613,449.25,0.771581610185189
449.5,653360.532122858,449.5,833130.49692502,449.5,653380,449.5,0.771513677675982
449.75,662247.330195442,449.75,844299.926741194,449.75,662270,449.75,0.77165900619521
450,672241.039725208,450,856722.546362006,450,672267,450,0.77193959090718
450.25,681261.439526274,450.25,868171.778325488,450.25,680970,450.25,0.771980146097523
450.5,690225.892968159,450.5,879808.688998059,450.5,689609,450.5,0.771797295072226
450.75,699102.265815861,450.75,890986.80368865,450.75,698152,450.75,0.771912828898974
451,707448.601695786,451,901645.565558323,451,706158,451,0.771894748378655
451.25,716456.922819948,451.25,913271.554277976,451.25,714817,451.25,0.771774954679544
451.5,722028.710295238,451.5,920234.454923921,451.5,720041,451.5,0.771889419246666
451.75,727936.444453912,451.75,927823.423188162,451.75,725595,451.75,0.771840994336001
452,732700.086887808,452,933814.454209299,452,730004,452,0.771906243205728
452.25,735955.522135291,452.25,937912.219478785,452.25,732907,452.25,0.771947501444764
452.5,740324.818703103,452.5,943444.311106549,452.5,736916,452.5,0.77197648513262
452.75,741825.199416223,452.75,945192.533477921,452.75,738067,452.75,0.772107395240841
453,740441.606234436,453,943303.292469084,453,736349,453,0.772208582754359
453.25,741019.233206065,453.25,944369.521985173,453.25,736582,453.25,0.771944272685054
453.5,741778.251969824,453.5,945101.264438639,453.5,736995,453.5,0.772132536384208
453.75,738893.353274345,453.75,941697.128858829,453.75,733789,453.75,0.771914699626481
454,736828.558744898,454,938766.423967904,454,731400,454,0.772155413123316
454.25,736499.197733979,454.25,938379.099071183,454.25,730735,454.25,0.772129405280746
454.5,732437.165667171,454.5,933430.068657067,454.5,726369,454.5,0.771946131586999
454.75,728114.814002667,454.75,927630.05597682,454.75,721749,454.75,0.772183515234649
455,720873.232970428,455,918438.927953489,455,714241,455,0.77215491683121
455.25,714387.696816616,455.25,910476.211010645,455.25,707463,455.25,0.771905743098925
455.5,707581.133771381,455.5,901604.602434409,455.5,700374,455.5,0.772070560906148
455.75,700365.132547321,455.75,892604.805826145,455.75,692887,455.75,0.771905625606251
456,694534.209109802,456,885184.021802429,456,686777,456,0.771896547008385
456.25,687380.743925428,456.25,876030.008885815,456.25,679366,456.25,0.771928377604761
456.5,683089.807054882,456.5,870222.677046693,456.5,674790,456.5,0.772222404928194
456.75,675395.173894701,456.75,860655.611850774,456.75,666858,456.75,0.772015635751453
457,668553.907836571,457,851272.113690525,457,659776,457,0.772606338179646
457.25,659967.787821741,457.25,840491.140998602,457.25,650980,457.25,0.772469832292101
457.5,652693.506788731,457.5,831303.018462799,457.5,643486,457.5,0.772400804583328
457.75,646015.527900295,457.75,822549.103972853,457.75,636587,457.75,0.77262913938775
458,634644.749398193,458,808467.313909859,458,625073,458,0.77225862318929
458.25,624608.405427828,458.25,795459.695363726,458.25,614884,458.25,0.772469912782212
458.5,615065.931585045,458.5,783206.508029554,458.5,605191,458.5,0.772566928924342
458.75,603067.139192724,458.75,768141.006005434,458.75,593092,458.75,0.772356916873512
459,590110.031525497,459,751628.389209773,459,580063,459,0.772365804736518
459.25,581399.603686008,459.25,740566.960872062,459.25,571219,459.25,0.772332004993447
459.5,571874.751873531,459.5,728426.090143519,459.5,561584,459.5,0.77234076086793
459.75,563461.992767115,459.75,717806.4025693,459.75,553050,459.75,0.772239613027263
460,551694.039189148,460,702850.055341585,460,541233,460,0.772201874609333
460.25,545119.239321027,460.25,694441.626172996,460.25,534401,460.25,0.772236943502163
460.5,536734.745997269,460.5,683564.099128526,460.5,525806,460.5,0.772453936830339
460.75,528625.801451139,460.75,673316.021870107,460.75,517493,460.75,0.772365083377277
461,519755.39513463,461,662164.305184996,461,508447,461,0.772197754736357
461.25,511532.671175158,461.25,651390.732813076,461.25,500047,461.25,0.772543285812566
461.5,503773.743524144,461.5,641758.521356862,461.5,492112,461.5,0.772251070851773
461.75,494383.543011643,461.75,629450.082397579,461.75,482596,461.75,0.772666719114276
462,483704.107254438,462,615911.829973193,462,471836,462,0.772594509185098
462.25,474794.114862689,462.25,604722.985394003,462.25,462816,462.25,0.772398918215563
462.5,464357.663128102,462.5,591186.307944692,462.5,452322,462.5,0.772711180173081
462.75,454254.197572467,462.75,578474.008482153,462.75,442167,462.75,0.772514214386675
463,445986.550639958,463,568010.147213634,463,433812,463,0.772428184572481
463.25,438994.847000055,463.25,559084.451183593,463.25,426709,463.25,0.772456622377168
463.5,429983.039892318,463.5,547592.503664389,463.5,417654,463.5,0.772477199616804
463.75,423647.145164323,463.75,539512.0319802,463.75,411209,463.75,0.77249341703901
464,415109.858997974,464,528705.786739574,464,402638,464,0.772399150530622
464.25,410642.791353167,464.25,522931.410318886,464.25,398024,464.25,0.772521830429635
464.5,403291.419954972,464.5,513588.040146332,464.5,390623,464.5,0.772495037522381
464.75,396608.088435581,464.75,504905.177675138,464.75,383879,464.75,0.77275208135646
465,389904.584017754,465,496371.092958362,465,377125,465,0.772752284679821
465.25,381597.698662412,465.25,485931.505316279,465.25,368871,465.25,0.772541350616677
465.5,375451.430560315,465.5,477921.359885006,465.5,362714,465.5,0.772831442317009
465.75,366092.783262169,465.75,466116.121231276,465.75,353463,465.75,0.772656853925847
466,360516.039779472,466,458865.440277535,466,347872,466,0.77290443769234
466.25,353980.399455845,466.25,450598.230147105,466.25,341363,466.25,0.772818228205908
466.5,346097.118435216,466.5,440624.731422214,466.5,333563,466.5,0.772712684308187
466.75,339602.773753697,466.75,432286.518093027,466.75,327110,466.75,0.772835299357348
467,332457.399491763,467,423265.64811905,467,320038,467,0.772702006589255
467.25,329208.730279791,467.25,418923.416629171,467.25,316723,467.25,0.773074182562466
467.5,323219.41043067,467.5,411425.929612433,467.5,310777,467.5,0.772846159800276
467.75,317227.962614697,467.75,403927.222763941,467.75,304836,467.75,0.772606884062815
468,311940.435344839,468,397227.005025332,468,299578,468,0.772545212234652
468.25,307128.857950723,468.25,391038.454169325,468.25,294783,468.25,0.772664014875431
468.5,301696.240678775,468.5,384100.906111685,468.5,289398,468.5,0.772704768430028
468.75,297567.249474764,468.75,378799.166372518,468.75,285269,468.75,0.772794517955461
469,291588.733691406,469,371273.043991507,469,279373,469,0.772622520506638
469.25,285235.305561686,469.25,363296.624985975,469.25,273125,469.25,0.77238685156538
469.5,279388.340436316,469.5,355822.011573993,469.5,267369,469.5,0.772445238939253
469.75,274545.442258853,469.75,349646.286549336,469.75,262580,469.75,0.772462382951409
470,267832.153806686,470,341082.633895286,470,256009,470,0.772493340745066
470.25,263722.872333148,470.25,335693.785352874,470.25,251787,470.25,0.77284393316152
470.5,259895.85303921,470.5,330856.459046515,470.5,247844,470.5,0.772765992031269
470.75,256317.471705492,470.75,326362.571206216,470.75,244147,470.75,0.772623466551543
471,249704.733215127,471,317866.090148006,471,237572,471,0.772805763301337
471.25,246646.719375175,471.25,314102.101200329,471.25,234390,471.25,0.772495770325713
471.5,243100.460133245,471.5,309560.555914714,471.5,230752,471.5,0.772557840026794
471.75,239115.969039409,471.75,304451.704917709,471.75,226707,471.75,0.77264488836514
472,235262.034683819,472,299571.37748241,472,222795,472,0.772577629912928
472.25,231622.672419021,472.25,294841.181357791,472.25,219095,472.25,0.772823786219728
472.5,227762.547294641,472.5,289928.784788487,472.5,215195,472.5,0.772820391902159
472.75,224162.052164402,472.75,285355.304539576,472.75,211549,472.75,0.772794566020646
473,218834.912435679,473,278576.209092653,473,206284,473,0.772788370570923
473.25,214941.600143356,473.25,273596.422008138,473.25,202381,473.25,0.772853628977394
473.5,210985.562416837,473.5,268514.581765822,473.5,198428,473.5,0.772983886009454
473.75,206545.015265083,473.75,262875.965122965,473.75,194029,473.75,0.77294727063838
474,203122.265611877,474,258528.872267674,474,190595,474,0.772920525414841
474.25,199447.812027769,474.25,253865.722956914,474.25,186933,474.25,0.772880003030895
474.5,195238.781011624,474.5,248513.023150444,474.5,182779,474.5,0.772865593012222
474.75,192920.159786264,474.75,245660.454967545,474.75,180402,474.75,0.772561666168085
475,188547.342025208,475,240080.18407914,475,176112,475,0.772599504531082
475.25,185972.231455085,475.25,236732.404618159,475.25,173570,475.25,0.772819376048295
475.5,182792.243999596,475.5,232755.076175969,475.5,170468,475.5,0.772589937651974
475.75,179526.51149116,475.75,228628.288742798,475.75,167291,475.75,0.772485544266929
476,176313.409030738,476,224508.770261263,476,164168,476,0.77257849890095
476.25,173477.722478724,476.25,220887.949884023,476.25,161401,476.25,0.772612713683076
476.5,170923.529350386,476.5,217666.348710943,476.5,158900,476.5,0.772506314148774
476.75,167742.78013298,476.75,213534.40146514,476.75,155821,476.75,0.772794289073629
477,163778.843422418,477,208570.782063569,477,152020,477,0.772495472016392
477.25,160007.977275374,477.25,203726.421337018,477.25,148404,477.25,0.77265204015945
477.5,157041.492484474,477.5,199930.793693013,477.5,145539,477.5,0.772722451458898
477.75,154866.173595748,477.75,197136.676763163,477.75,143411,477.75,0.77281718946386
478,151837.654613133,478,193271.898628513,478,140497,478,0.772854864557816
478.25,149218.521434562,478.25,189981.265568605,478.25,137966,478.25,0.772682813703232
478.5,146163.146265879,478.5,186090.241868006,478.5,135036,478.5,0.772686864148719
478.75,144021.583790553,478.75,183321.064026051,478.75,132954,478.75,0.772862595041692
479,141220.498158274,479,179738.204658283,479,130267,479,0.772935953957667
479.25,139523.886025531,479.25,177603.40122986,479.25,128602,479.25,0.772831377467156
